%
%
% Run:01    Table:T1                SWAN version:41.51
%
%       Xp            Yp            Hsig          RTpeak        Botlev        PkDir    
%       [m]           [m]           [m]           [sec]         [m]           [degr]   
%
      778245.      4933370.      -9.00000       -9.0000      -99.0000      -999.000 
      778160.      4933363.      -9.00000       -9.0000      -99.0000      -999.000 
      778074.      4933356.      -9.00000       -9.0000       23.3732      -999.000 
      777989.      4933348.       3.54244       10.1181       23.2849       120.000 
      777904.      4933342.       3.55574       10.1181       23.2298       120.000 
      777819.      4933334.       3.56670       10.1181       23.1678       120.000 
      777733.      4933327.       3.57598       10.1181       23.0816       120.000 
      777648.      4933320.       3.58392       10.1181       22.9816       120.000 
      777563.      4933312.       3.59064       10.1181       22.8826       120.000 
      777478.      4933306.       3.59622       10.1181       22.7380       120.000 
      777392.      4933298.       3.60158       10.1181       22.5974       120.000 
      777307.      4933291.       3.60701       10.1181       22.4616       120.000 
      777222.      4933284.       3.61260       10.1181       22.3275       120.000 
      777137.      4933276.       3.61818       10.1181       22.2001       120.000 
      777051.      4933270.       3.62335       10.1181       22.0828       120.000 
      776966.      4933262.       3.62774       10.1181       21.9571       120.000 
      776881.      4933255.       3.63188       10.1181       21.8255       120.000 
      776796.      4933248.       3.63610       10.1181       21.7416       120.000 
      776710.      4933241.       3.64051       10.1181       21.7108       120.000 
      776625.      4933234.       3.64477       10.1181       21.7039       120.000 
      776540.      4933226.       3.64847       10.1181       21.6746       120.000 
      776454.      4933219.       3.65151       10.1181       21.5835       120.000 
      776369.      4933212.       3.65475       10.1181       21.4386       120.000 
      776284.      4933205.       3.65846       10.1181       21.3620       120.000 
      776199.      4933198.       3.66199       10.1181       21.2924       120.000 
      776113.      4933190.       3.66522       10.1181       21.1998       120.000 
      776028.      4933184.       3.66774       10.1181       21.0977       120.000 
      775943.      4933176.       3.66934       10.1181       20.9845       120.000 
      775858.      4933169.       3.67046       10.1181       20.8172       120.000 
      775772.      4933162.       3.67232       10.1181       20.6968       120.000 
      775687.      4933154.       3.67457       10.1181       20.5776       120.000 
      775602.      4933148.       3.67690       10.1181       20.4900       120.000 
      775516.      4933140.       3.67898       10.1181       20.4480       120.000 
      775431.      4933133.       3.68037       10.1181       20.4235       120.000 
      775346.      4933126.       3.68082       10.1181       20.3685       120.000 
      775261.      4933118.       3.68041       10.1181       20.2580       120.000 
      775175.      4933112.       3.67878       10.1181       20.1677       120.000 
      775090.      4933104.       3.67658       10.1181       20.0718       120.000 
      775005.      4933097.       3.67394       10.1181       19.9706       120.000 
      774920.      4933090.       3.67079       10.1181       19.8542       120.000 
      774834.      4933083.       3.66751       10.1181       19.7109       120.000 
      774749.      4933076.       3.66485       10.1181       19.5499       120.000 
      774664.      4933068.       3.66328       10.1181       19.4513       120.000 
      774579.      4933062.       3.66244       10.1181       19.3396       120.000 
      774493.      4933054.       3.66171       10.1181       19.2428       120.000 
      774408.      4933047.       3.66075       10.1181       19.1514       120.000 
      774323.      4933040.       3.65953       10.1181       19.0773       120.000 
      774238.      4933032.       3.65816       10.1181       19.0221       120.000 
      774152.      4933026.       3.65679       10.1181       18.9591       120.000 
      774067.      4933018.       3.65558       10.1181       18.8570       120.000 
      773982.      4933011.       3.65502       10.1181       18.7479       120.000 
      773896.      4933004.       3.65489       10.1181       18.6368       120.000 
      773811.      4932996.       3.65526       10.1181       18.5032       120.000 
      773726.      4932990.       3.65623       10.1181       18.3570       120.000 
      773641.      4932982.       3.65771       10.1181       18.2232       120.000 
      773555.      4932975.       3.65925       10.1181       18.1135       120.000 
      773470.      4932968.       3.66068       10.1181       18.0041       120.000 
      773385.      4932960.       3.66119       10.1181       17.9112       120.000 
      773300.      4932954.       3.66092       10.1181       17.7790       120.000 
      773214.      4932946.       3.66010       10.1181       17.6652       120.000 
      773129.      4932939.       3.65881       10.1181       17.6090       120.000 
      773044.      4932932.       3.65692       10.1181       17.5946       120.000 
      772959.      4932925.       3.65437       10.1181       17.5622       120.000 
      772873.      4932918.       3.65172       10.1181       17.5077       120.000 
      772788.      4932910.       3.64992       10.1181       17.4170       120.000 
      772703.      4932904.       3.64925       10.1181       17.2967       120.000 
      772618.      4932896.       3.64933       10.1181       17.1807       120.000 
      772532.      4932889.       3.64972       10.1181       17.0862       120.000 
      772447.      4932882.       3.65018       10.1181       16.9978       120.000 
      772362.      4932874.       3.65035       10.1181       16.9095       120.000 
      772276.      4932868.       3.64934       10.1181       16.8273       120.000 
      772191.      4932860.       3.64795       10.1181       16.6814       120.000 
      772106.      4932853.       3.64638       10.1181       16.5604       120.000 
      772021.      4932846.       3.64469       10.1181       16.4849       120.000 
      771935.      4932838.       3.64280       10.1181       16.4342       120.000 
      771850.      4932832.       3.64051       10.1181       16.3989       120.000 
      771765.      4932824.       3.63702       10.1181       16.3927       120.000 
      771680.      4932817.       3.63431       10.1181       16.2798       120.000 
      771594.      4932810.       3.63239       10.1181       16.1809       120.000 
      771509.      4932803.       3.63112       10.1181       16.0933       120.000 
      771424.      4932796.       3.63024       10.1181       16.0058       120.000 
      771339.      4932788.       3.62931       10.1181       15.9186       120.000 
      771253.      4932781.       3.62780       10.1181       15.8335       110.000 
      771168.      4932774.       3.62532       10.1181       15.7306       110.000 
      771083.      4932767.       3.62302       10.1181       15.5856       110.000 
      770998.      4932760.       3.62009       10.1181       15.4735       110.000 
      770912.      4932752.       3.61688       10.1181       15.3838       110.000 
      770827.      4932746.       3.61373       10.1181       15.2999       110.000 
      770742.      4932738.       3.61052       10.1181       15.2288       110.000 
      770656.      4932731.       3.60672       10.1181       15.1614       110.000 
      770571.      4932724.       3.60326       10.1181       15.0814       110.000 
      770486.      4932716.       3.59993       10.1181       15.0748       110.000 
      770401.      4932710.       3.59727       10.1181       15.0591       110.000 
      770315.      4932702.       3.59524       10.1181       15.0185       110.000 
      770230.      4932695.       3.59358       10.1181       14.9618       110.000 
      770145.      4932688.       3.59219       10.1181       14.8807       110.000 
      770060.      4932680.       3.59031       10.1181       14.8059       110.000 
      769974.      4932674.       3.58844       10.1181       14.7337       110.000 
      769889.      4932666.       3.58672       10.1181       14.6637       110.000 
      769804.      4932659.       3.58501       10.1181       14.6069       110.000 
      769718.      4932652.       3.58322       10.1181       14.5607       110.000 
      769633.      4932645.       3.58140       10.1181       14.5072       110.000 
      769548.      4932638.       3.57982       10.1181       14.4202       110.000 
      769463.      4932630.       3.57872       10.1181       14.3352       110.000 
      769377.      4932624.       3.57746       10.1181       14.3176       110.000 
      769292.      4932616.       3.57617       10.1181       14.3208       110.000 
      769207.      4932609.       3.57497       10.1181       14.3042       110.000 
      769122.      4932602.       3.57378       10.1181       14.2430       110.000 
      769036.      4932594.       3.57238       10.1181       14.1449       110.000 
      768951.      4932588.       3.56968       10.1181       14.0680       110.000 
      768866.      4932580.       3.56598       10.1181       14.0227       110.000 
      768781.      4932573.       3.56235       10.1181       13.9596       110.000 
      768695.      4932566.       3.55862       10.1181       13.8974       110.000 
      768610.      4932558.       3.55459       10.1181       13.8438       110.000 
      768525.      4932552.       3.55036       10.1181       13.7891       110.000 
      768440.      4932544.       3.54650       10.1181       13.7167       110.000 
      768354.      4932537.       3.54298       10.1181       13.6642       110.000 
      768269.      4932530.       3.54005       10.1181       13.6411       110.000 
      768184.      4932523.       3.53780       10.1181       13.6157       110.000 
      768098.      4932516.       3.53586       10.1181       13.5914       110.000 
      768013.      4932508.       3.53403       10.1181       13.5606       110.000 
      767928.      4932501.       3.53212       10.1181       13.5166       110.000 
      767843.      4932494.       3.52953       10.1181       13.4687       110.000 
      767757.      4932487.       3.52609       10.1181       13.4124       110.000 
      767672.      4932480.       3.52166       10.1181       13.3664       110.000 
      767587.      4932472.       3.51657       10.1181       13.3223       110.000 
      767502.      4932466.       3.51197       10.1181       13.2355       110.000 
      767416.      4932458.       3.50795       10.1181       13.1376       110.000 
      767331.      4932451.       3.50362       10.1181       13.0926       110.000 
      767246.      4932444.       3.49907       10.1181       13.0486       110.000 
      767161.      4932436.       3.49383       10.1181       13.0031       110.000 
      767075.      4932430.       3.48869       10.1181       12.9256       110.000 
      766990.      4932422.       3.48358       10.1181       12.8561       110.000 
      766905.      4932415.       3.47826       10.1181       12.8098       110.000 
      766820.      4932408.       3.47269       10.1181       12.7633       110.000 
      766734.      4932400.       3.46687       10.1181       12.6766       110.000 
      766649.      4932394.       3.45956       10.1181       12.5913       110.000 
      766564.      4932386.       3.45097       10.1181       12.5083       110.000 
      766478.      4932379.       3.44208       10.1181       12.4048       110.000 
      766393.      4932372.       3.43382       10.1181       12.2684       110.000 
      766308.      4932365.       3.42638       10.1181       12.1417       110.000 
      766223.      4932358.       3.41990       10.1181       12.0543       110.000 
      766137.      4932350.       3.41470       10.1181       11.9646       110.000 
      766052.      4932344.       3.41099       10.1181       11.8677       110.000 
      765967.      4932336.       3.40806       10.1181       11.7718       110.000 
      765882.      4932329.       3.40546       10.1181       11.6690       110.000 
      765796.      4932322.       3.40252       10.1181       11.5879       110.000 
      765711.      4932314.       3.39873       10.1181       11.5480       110.000 
      765626.      4932308.       3.39371       10.1181       11.5344       110.000 
      765540.      4932300.       3.38855       10.1181       11.4874       110.000 
      765455.      4932293.       3.38318       10.1181       11.3805       110.000 
      765370.      4932286.       3.37819       10.1181       11.2550       110.000 
      765285.      4932278.       3.37392       10.1181       11.1302       110.000 
      765199.      4932272.       3.36961       10.1181       11.0363       110.000 
      765114.      4932264.       3.36449       10.1181       10.9705       110.000 
      765029.      4932257.       3.35818       10.1181       10.9026       110.000 
      764944.      4932250.       3.34888       10.1181       10.8472       110.000 
      764858.      4932242.       3.33563       10.1181       10.7935       110.000 
      764773.      4932236.       3.31844       10.1181       10.7400       110.000 
      764688.      4932228.       3.29745       10.1181       10.6816       110.000 
      764603.      4932221.       3.27332       10.1181       10.6143       110.000 
      764517.      4932214.       3.24708       10.1181       10.5387       110.000 
      764432.      4932207.       3.21998       10.1181       10.4609       110.000 
      764347.      4932200.       3.19243       10.1181       10.3833       110.000 
      764262.      4932192.       3.16577       10.1181       10.2648       100.000 
      764176.      4932186.       3.13586       10.1181       10.1601       100.000 
      764091.      4932178.       3.10227       10.1181       10.0650       100.000 
      764006.      4932171.       3.06682       10.1181        9.9667       100.000 
      763920.      4932164.       3.03465       10.1181        9.8310       100.000 
      763835.      4932156.       3.01487       10.1181        9.5751       100.000 
      763750.      4932150.       3.02220       10.1181        9.1102       100.000 
      763665.      4932142.       3.04367       10.1181        8.8878       100.000 
      763579.      4932135.       3.07299       10.1181        8.8082       100.000 
      763494.      4932128.       3.11456       10.1181        8.5095        90.000 
      763409.      4932120.       3.16254       10.1181        8.0347        90.000 
      763324.      4932114.       3.19132       10.1181        7.4760        90.000 
      763238.      4932106.       3.14716       10.1181        5.4688        90.000 
      763153.      4932099.       3.10714       10.1181        6.7026        90.000 
      763068.      4932092.       3.11746       10.1181        6.9631       100.000 
      762983.      4932085.       3.12226       10.1181        6.6951       100.000 
      762897.      4932078.       3.10375       10.1181        6.6015       100.000 
      762812.      4932070.       3.06784       10.1181        6.7438       100.000 
      762727.      4932063.       3.02213       10.1181        6.3829       100.000 
      762642.      4932056.       2.93063       10.1181        5.5191       100.000 
      762556.      4932049.       2.84121       10.1181        5.6694       100.000 
      762471.      4932042.       2.77172       10.1181        5.4121       100.000 
      762386.      4932034.       2.69275       10.1181        5.0237       100.000 
      762300.      4932028.       2.59826       10.1181        4.7106       100.000 
      762215.      4932020.       2.50102       10.1181        4.5163       100.000 
      762130.      4932013.       2.41226       10.1181        4.4422       100.000 
      762045.      4932006.       2.32740       10.1181        4.1418       100.000 
      761959.      4931998.       2.25261       10.1181        4.0852       100.000 
      761874.      4931992.       2.18409       10.1181        3.9218       100.000 
      761789.      4931984.       2.09769       10.1181        3.5901       100.000 
      761704.      4931977.       1.95621       10.1181        3.0470       100.000 
      761618.      4931970.       1.73188       10.1181        2.3309       100.000 
      761533.      4931962.       1.46087       10.1181        1.8113       100.000 
      761448.      4931956.       1.21950       10.1181        1.2939       100.000 
      761362.      4931948.       1.03351       10.1181        1.0677       100.000 
      761277.      4931941.      -9.00000       -9.0000      -99.0000      -999.000 
      761192.      4931934.      -9.00000       -9.0000      -99.0000      -999.000 
